time,voltage,current,temperature
0.0,0.0,0.0,25.0
0.1,0.31,0.15,25.1
0.2,0.59,0.29,25.3
0.3,0.81,0.41,25.6
0.4,0.95,0.48,26.0
0.5,1.00,0.50,26.5
0.6,0.95,0.48,27.0
0.7,0.81,0.41,27.4
0.8,0.59,0.29,27.7
0.9,0.31,0.15,27.9
1.0,0.0,0.0,28.0
1.1,-0.31,-0.15,27.9
1.2,-0.59,-0.29,27.7
1.3,-0.81,-0.41,27.4
1.4,-0.95,-0.48,27.0
1.5,-1.00,-0.50,26.5
1.6,-0.95,-0.48,26.0
1.7,-0.81,-0.41,25.6
1.8,-0.59,-0.29,25.3
1.9,-0.31,-0.15,25.1
2.0,0.0,0.0,25.0
